Vi (V),Vo (V),
0.05,2.72,
0.06,3.30,
0.07,3.89,
0.08,4.44,
0.09,5.00,
0.10,5.62,
0.11,6.36,
0.12,7.00,
0.13,7.75,
0.14,8.35,
0.15,9.00,
0.16,9.58,
0.17,9.96,
0.18,10.25,
0.19,10.44,
0.20,10.64,
0.21,10.95,
0.22,10.95,
0.23,10.95,
0.24,10.95,

